~NOTA: creé un repo con lo de Agus Vidal! creo que deebríamos continuar con lo nuestro y al final comparar nuestros resultados con los de ella

--> HOLIS :DD Incorporé al modelo 5 la funcion de Agus. Veo que en el resultado hay archivos repetidos, no sé si eso esta bien :s --> en todo caso, esa mejora puede
incorporarce en la parte 6. Ahi tambien podemos usar un algoritmo mejorado para generar el conjunto H. Voy buscando el n de la parte 5, es 900 > n > 870.


Lo que falta es:


### MODELOS 5 Y 6 ###
* Revisar bien las partes 5 y 6:
    * Ví que la parte 5 devuelve muy rápido soluciones que son factibles pero no óptimas. Tal vez habría que hacer algo para que, si todavía hay tiempo, siga buscando hasta 
    encontrar una óptima. 
    ~En realidad, eso está así porque el lo pidió. Termina cuando la función objetivo es < 1... o, al menos, si quería algo más, no lo dijo.
    # Okis, queda asi entonces.

    Supongo que en la parte 6 pasa lo mismo, pero bueno, lo noté en la parte 5 por ahora --> con f0017 (o f0018) la parte 5 devuelve un factible que no
    es óptimo, pero la parte 6 sí devuelve el óptimo (o al menos devuelve el mismo resultado que la parte 1).
    
    * Si en el tiempo límite no encontró ninguna solución óptima, estaría bueno que al menos devuelva una solución que sea factible (no sé si hacemos esto jeje).

    ~no lo hacemos. puede devolver el x, la solución primal. esta, entiendo, sería factible. modifico el código para añadir eso. igual, no sé si es lo ideal, porque creo que no lo hacemos en otro modelo.

    * La parte 6 genera sólo los conjuntos que utiliza, ni más ni menos. No sé si está mal, pero al menos es raro jaja. La parte 5, en cambio, genera muchos conjuntos, y sólo usa
    algunos.

### INFORME ###
* Informe --> actualizar todo básicamente.
    ⤷ recordar modelar el dual de la parte 5

### PARTE 7 ###
* Buscar las cotas (n_x).
* Llenar las carpetas IN y OUT con archivos caso_i.in/caso_i.out.


## MODELO 5
generar_subconjuntos:
    Tiempo de ejecución: 420.1834788322449
    Solución: 424 discos
    Solución: [0, 1, 2, 3, 4, 6, 7, 9, 12, 13, 14, 15, 17, 18, 20, 21, 22, 23, 25, 27, 28, 29, 30, 31, 32, 34, 35, 36, 37, 38, 39, 40, 42, 44, 45, 46, 47, 48, 49, 50, 51, 52, 53, 54, 55, 56, 58, 59, 60, 61, 63, 65, 66, 69, 70, 72, 73, 77, 78, 79, 80, 81, 82, 83, 85, 86, 87, 89, 90, 91, 92, 94, 95, 99, 100, 101, 102, 103, 104, 106, 108, 109, 113, 115, 116, 117, 119, 120, 121, 122, 124, 125, 126, 127, 128, 129, 130, 131, 132, 133, 134, 135, 137, 138, 139, 141, 143, 144, 146, 147, 148, 150, 151, 152, 153, 154, 155, 158, 159, 161, 162, 163, 165, 167, 168, 169, 172, 173, 174, 175, 176, 177, 178, 181, 182, 183, 185, 186, 187, 188, 189, 192, 193, 194, 195, 197, 198, 199, 200, 201, 202, 203, 204, 206, 207, 209, 210, 211, 212, 213, 214, 216, 217, 218, 219, 220, 222, 225, 226, 227, 228, 230, 232, 233, 234, 235, 236, 238, 239, 240, 241, 244, 245, 246, 249, 250, 252, 253, 255, 256, 259, 260, 262, 264, 265, 266, 267, 268, 269, 270, 271, 272, 273, 274, 275, 277, 278, 279, 280, 282, 283, 285, 286, 288, 289, 290, 291, 292, 293, 294, 297, 298, 299, 300, 301, 302, 303, 305, 308, 309, 314, 315, 316, 317, 318, 319, 320, 321, 322, 323, 326, 327, 328, 329, 330, 331, 332, 333, 334, 335, 336, 337, 338, 339, 340, 341, 344, 345, 346, 347, 349, 350, 351, 352, 353, 354, 355, 356, 358, 360, 361, 362, 364, 367, 368, 369, 370, 371, 372, 374, 375, 376, 377, 378, 379, 380, 381, 382, 384, 385, 386, 387, 388, 389, 390, 392, 394, 396, 397, 398, 400, 401, 402, 403, 408, 409, 410, 412, 413, 414, 415, 416, 417, 419, 420, 421, 422, 423, 424, 511, 516, 520, 522, 525, 529, 531, 535, 540, 545, 555, 564, 567, 573, 576, 592, 593, 594, 595, 597, 605, 608, 610, 623, 624, 627, 631, 633, 634, 635, 636, 637, 638, 639, 644, 649, 652, 653, 654, 661, 664, 665, 668, 671, 677, 680, 681, 690, 691, 704, 710, 712, 714, 715, 716, 720, 721, 724, 725, 728, 732, 735, 737, 741, 743, 744, 745, 752, 753, 758, 767, 769, 770, 772, 774, 775, 776, 778, 780, 783, 784, 786, 790, 795, 797, 798, 800, 801, 802, 805, 806, 809, 810, 816, 817, 818, 819, 821, 822, 826, 827, 828, 829, 832, 836]

generar_subconjuntos_5:
    Tiempo de ejecución: 341.2343637943268
    Solución: 470 discos
    Solución: [349, 581, 657, 714, 1517, 2087, 2573, 2585, 2728, 3645, 3864, 3936, 4133, 4913, 5476, 5968, 6423, 6476, 6518, 6752, 6870, 7034, 7683, 8150, 8199, 8863, 9429, 9703, 9809, 10296, 10780, 10938, 11049, 11063, 11322, 11607, 11785, 11844, 12153, 12363, 12454, 12721, 12947, 13399, 13481, 13677, 14098, 14497, 14767, 14828, 14990, 15099, 15328, 15650, 15773, 16105, 16392, 16777, 16833, 16981, 17478, 17961, 18198, 18597, 18916, 19174, 19437, 19794, 20582, 20606, 20808, 21041, 21458, 22657, 23166, 23616, 23949, 24098, 24359, 24980, 25022, 26002, 26501, 26557, 27256, 28018, 28245, 28588, 29107, 29540, 29839, 30819, 31206, 31331, 32156, 33080, 33339, 33519, 33686, 34199, 34475, 34709, 34884, 34916, 34960, 35288, 35349, 35359, 35477, 35507, 35676, 36310, 36517, 36652, 36844, 37334, 37965, 38018, 38335, 38656, 38798, 39353, 39524, 39713, 39992, 40355, 40671, 40763, 41297, 41821, 42075, 42784, 43152, 43600, 44348, 45186, 45470, 45983, 46886, 47286, 47820, 48368, 48765, 48873, 49127, 49561, 49979, 50298, 50487, 51318, 51558, 51605, 51859, 52379, 52490, 52615, 52959, 53436, 53838, 54131, 54307, 54597, 56036, 56082, 56083, 56434, 57255, 57469, 57798, 57962, 58087, 58283, 58434, 58691, 59266, 59417, 60003, 60468, 61081, 61476, 61763, 62271, 62468, 62476, 62505, 62651, 62896, 63190, 63765, 63821, 64012, 64294, 65168, 65255, 65279, 65655, 65840, 65965, 66395, 66836, 67447, 67726, 68433, 68527, 68928, 69066, 69413, 69683, 69788, 70227, 70813, 71245, 71645, 71655, 72045, 72169, 72741, 73283, 73323, 73700, 73832, 74264, 74521, 75042, 75217, 75352, 75625, 76035, 76381, 76420, 76615, 77240, 77849, 77927, 78246, 78365, 78466, 78713, 79176, 79896, 80230, 80767, 80860, 81687, 82055, 82219, 83134, 83240, 83453, 83747, 84058, 84413, 84895, 85425, 85917, 86270, 86516, 86629, 86805, 87376, 87888, 88705, 89886, 90318, 91108, 91422, 91718, 92823, 93157, 93301, 93706, 93931, 94171, 94470, 94871, 95320, 95356, 96305, 96753, 97066, 97229, 97587, 98106, 98496, 98723, 98844, 98951, 99134, 99244, 100597, 101222, 101249, 101330, 102072, 102191, 102739, 103147, 103451, 104524, 105002, 105353, 105560, 105938, 106108, 106301, 106673, 107469, 108376, 108848, 109027, 109571, 109832, 110438, 110850, 111615, 113057, 113747, 114073, 114345, 114899, 115048, 115655, 116173, 116495, 116767, 117592, 117700, 118367, 118398, 118926, 119295, 121168, 121329, 121466, 121942, 122413, 122587, 123903, 124284, 124701, 124958, 125046, 125309, 125849, 125919, 125936, 126661, 126725, 127244, 127498, 127502, 127548, 127835, 127979, 128260, 128427, 128551, 128660, 129002, 129827, 130268, 130731, 131294, 131878, 132384, 132715, 132807, 132999, 133151, 133429, 134141, 134898, 135340, 135570, 135636, 136024, 136855, 136888, 137174, 137204, 137309, 137687, 138784, 138853, 139000, 139173, 139321, 139374, 140120, 140284, 140694, 140908, 141347, 141758, 141870, 142511, 142644, 143600, 143757, 143764, 144148, 144248, 144417, 144807, 144972, 145442, 146029, 146115, 146429, 146755, 146974, 148133, 148526, 148724, 149355, 150659, 150876, 150891, 151367, 151556, 152176, 152774, 153266, 153812, 154061, 154776, 155258, 155737, 155756, 155885, 157674, 158166, 158654, 158959, 159789, 160011, 161098, 161300, 161422, 162346, 162784, 162838, 163207, 163498, 163618, 163657, 163957, 164131, 165009, 165161, 166074, 166738, 166785, 167242, 167445, 167458, 168112, 168935, 169524, 169643, 169931, 170100, 170347, 170728, 171069, 171561, 172511, 172548, 173320, 173714]

## MODELO 6
generar_subconjuntos:
    Tiempo de ejecución: 0.2835867404937744
    Solución: 425 discos
    Solución: [0, 1, 2, 3, 4, 5, 6, 7, 8, 9, 10, 11, 12, 13, 14, 15, 16, 17, 18, 19, 20, 21, 22, 23, 24, 25, 26, 27, 28, 29, 30, 31, 32, 33, 34, 35, 36, 37, 38, 39, 40, 41, 42, 43, 44, 45, 46, 47, 48, 49, 50, 51, 52, 53, 54, 55, 56, 57, 58, 59, 60, 61, 62, 63, 64, 65, 66, 67, 68, 69, 70, 71, 72, 73, 74, 75, 76, 77, 78, 79, 80, 81, 82, 83, 84, 85, 86, 87, 88, 89, 90, 91, 92, 93, 94, 95, 96, 97, 98, 99, 100, 101, 102, 103, 104, 105, 106, 107, 108, 109, 110, 111, 112, 113, 114, 115, 116, 117, 118, 119, 120, 121, 122, 123, 124, 125, 126, 127, 128, 129, 130, 131, 132, 133, 134, 135, 136, 137, 138, 139, 140, 141, 142, 143, 144, 145, 146, 147, 148, 149, 150, 151, 152, 153, 154, 155, 156, 157, 158, 159, 160, 161, 162, 163, 164, 165, 166, 167, 168, 169, 170, 171, 172, 173, 174, 175, 176, 177, 178, 179, 180, 181, 182, 183, 184, 185, 186, 187, 188, 189, 190, 191, 192, 193, 194, 195, 196, 197, 198, 199, 200, 201, 202, 203, 204, 205, 206, 207, 208, 209, 210, 211, 212, 213, 214, 215, 216, 217, 218, 219, 220, 221, 222, 223, 224, 225, 226, 227, 228, 229, 230, 231, 232, 233, 234, 235, 236, 237, 238, 239, 240, 241, 242, 243, 244, 245, 246, 247, 248, 249, 250, 251, 252, 253, 254, 255, 256, 257, 258, 259, 260, 261, 262, 263, 264, 265, 266, 267, 268, 269, 270, 271, 272, 273, 274, 275, 276, 277, 278, 279, 280, 281, 282, 283, 284, 285, 286, 287, 288, 289, 290, 291, 292, 293, 294, 295, 296, 297, 298, 299, 300, 301, 302, 303, 304, 305, 306, 307, 308, 309, 310, 311, 312, 313, 314, 315, 316, 317, 318, 319, 320, 321, 322, 323, 324, 325, 326, 327, 328, 329, 330, 331, 332, 333, 334, 335, 336, 337, 338, 339, 340, 341, 342, 343, 344, 345, 346, 347, 348, 349, 350, 351, 352, 353, 354, 355, 356, 357, 358, 359, 360, 361, 362, 363, 364, 365, 366, 367, 368, 369, 370, 371, 372, 373, 374, 375, 376, 377, 378, 379, 380, 381, 382, 383, 384, 385, 386, 387, 388, 389, 390, 391, 392, 393, 394, 395, 396, 397, 398, 399, 400, 401, 402, 403, 404, 405, 406, 407, 408, 409, 410, 411, 412, 413, 414, 415, 416, 417, 418, 419, 420, 421, 422, 423, 424]

generar_subconjuntos_6:
    Tiempo de ejecución: 0.7536122798919678
    Solución: 445 discos
    Solución: [0, 1, 2, 3, 4, 5, 6, 7, 8, 9, 10, 11, 12, 13, 14, 15, 16, 17, 18, 19, 20, 21, 22, 23, 24, 25, 26, 27, 28, 29, 30, 31, 32, 33, 34, 35, 36, 37, 38, 39, 40, 41, 42, 43, 44, 45, 46, 47, 48, 49, 50, 51, 52, 53, 54, 55, 56, 57, 58, 59, 60, 61, 62, 63, 64, 65, 66, 67, 68, 69, 70, 71, 72, 73, 74, 75, 76, 77, 78, 79, 80, 81, 82, 83, 84, 85, 86, 87, 88, 89, 90, 91, 92, 93, 94, 95, 96, 97, 98, 99, 100, 101, 102, 103, 104, 105, 106, 107, 108, 109, 110, 111, 112, 113, 114, 115, 116, 117, 118, 119, 120, 121, 122, 123, 124, 125, 126, 127, 128, 129, 130, 131, 132, 133, 134, 135, 136, 137, 138, 139, 140, 141, 142, 143, 144, 145, 146, 147, 148, 149, 150, 151, 152, 153, 154, 155, 156, 157, 158, 159, 160, 161, 162, 163, 164, 165, 166, 167, 168, 169, 170, 171, 172, 173, 174, 175, 176, 177, 178, 179, 180, 181, 182, 183, 184, 185, 186, 187, 188, 189, 190, 191, 192, 193, 194, 195, 196, 197, 198, 199, 200, 201, 202, 203, 204, 205, 206, 207, 208, 209, 210, 211, 212, 213, 214, 215, 216, 217, 218, 219, 220, 221, 222, 223, 224, 225, 226, 227, 228, 229, 230, 231, 232, 233, 234, 235, 236, 237, 238, 239, 240, 241, 242, 243, 244, 245, 246, 247, 248, 249, 250, 251, 252, 253, 254, 255, 256, 257, 258, 259, 260, 261, 262, 263, 264, 265, 266, 267, 268, 269, 270, 271, 272, 273, 274, 275, 276, 277, 278, 279, 280, 281, 282, 283, 284, 285, 286, 287, 288, 289, 290, 291, 292, 293, 294, 295, 296, 297, 298, 299, 300, 301, 302, 303, 304, 305, 306, 307, 308, 309, 310, 311, 312, 313, 314, 315, 316, 317, 318, 319, 320, 321, 322, 323, 324, 325, 326, 327, 328, 329, 330, 331, 332, 333, 334, 335, 336, 337, 338, 339, 340, 341, 342, 343, 344, 345, 346, 347, 348, 349, 350, 351, 352, 353, 354, 355, 356, 357, 358, 359, 360, 361, 362, 363, 364, 365, 366, 367, 368, 369, 370, 371, 372, 373, 374, 375, 376, 377, 378, 379, 380, 381, 382, 383, 384, 385, 386, 387, 388, 389, 390, 391, 392, 393, 394, 395, 396, 397, 398, 399, 400, 401, 402, 403, 404, 405, 406, 407, 408, 409, 410, 411, 412, 413, 414, 415, 416, 417, 418, 419, 420, 421, 422, 423, 424, 425, 426, 427, 428, 429, 430, 431, 432, 433, 434, 435, 436, 437, 438, 439, 440, 441, 442, 443, 444]