Patron 1: 
1803200: 5    6296449: 0    5050787: 0    3170852: 0    8181573: 0    2908868: 0    8954025: 0    8586796: 0    1935181: 0    2721071: 0    977137: 1    2407122: 0    9769300: 0    1496917: 0    9045337: 0    3228314: 0    3207580: 0    

Patron 2: 
1803200: 4    6296449: 0    5050787: 0    3170852: 0    8181573: 0    2908868: 0    8954025: 0    8586796: 0    1935181: 0    2721071: 0    977137: 1    2407122: 0    9769300: 0    1496917: 0    9045337: 0    3228314: 0    3207580: 0    

Patron 3: 
1803200: 3    6296449: 0    5050787: 0    3170852: 0    8181573: 0    2908868: 0    8954025: 0    8586796: 0    1935181: 1    2721071: 0    977137: 0    2407122: 0    9769300: 0    1496917: 0    9045337: 0    3228314: 0    3207580: 0    

Patron 4: 
1803200: 2    6296449: 0    5050787: 0    3170852: 0    8181573: 0    2908868: 0    8954025: 0    8586796: 0    1935181: 1    2721071: 0    977137: 0    2407122: 0    9769300: 0    1496917: 0    9045337: 0    3228314: 0    3207580: 0    

Patron 5: 
1803200: 1    6296449: 0    5050787: 0    3170852: 0    8181573: 0    2908868: 0    8954025: 0    8586796: 0    1935181: 1    2721071: 0    977137: 0    2407122: 0    9769300: 0    1496917: 0    9045337: 0    3228314: 0    3207580: 0    

Patron 6: 
1803200: 0    6296449: 0    5050787: 0    3170852: 0    8181573: 0    2908868: 0    8954025: 0    8586796: 0    1935181: 1    2721071: 0    977137: 0    2407122: 0    9769300: 0    1496917: 0    9045337: 0    3228314: 0    3207580: 0    

Patron 7: 
1803200: 0    6296449: 1    5050787: 0    3170852: 1    8181573: 0    2908868: 0    8954025: 0    8586796: 0    1935181: 0    2721071: 0    977137: 0    2407122: 0    9769300: 0    1496917: 0    9045337: 0    3228314: 0    3207580: 0    

Patron 8: 
1803200: 0    6296449: 0    5050787: 1    3170852: 0    8181573: 0    2908868: 0    8954025: 0    8586796: 0    1935181: 0    2721071: 0    977137: 1    2407122: 0    9769300: 0    1496917: 0    9045337: 0    3228314: 0    3207580: 0    

Patron 9: 
1803200: 0    6296449: 0    5050787: 0    3170852: 1    8181573: 0    2908868: 0    8954025: 0    8586796: 0    1935181: 1    2721071: 0    977137: 0    2407122: 0    9769300: 0    1496917: 0    9045337: 0    3228314: 0    3207580: 0    

Patron 10: 
1803200: 0    6296449: 0    5050787: 0    3170852: 0    8181573: 0    2908868: 1    8954025: 0    8586796: 0    1935181: 0    2721071: 0    977137: 1    2407122: 0    9769300: 0    1496917: 0    9045337: 0    3228314: 0    3207580: 0    

Patron 11: 
1803200: 0    6296449: 0    5050787: 0    3170852: 0    8181573: 1    2908868: 0    8954025: 0    8586796: 0    1935181: 0    2721071: 0    977137: 1    2407122: 0    9769300: 0    1496917: 0    9045337: 0    3228314: 0    3207580: 0    

Patron 12: 
1803200: 0    6296449: 0    5050787: 0    3170852: 0    8181573: 0    2908868: 3    8954025: 0    8586796: 0    1935181: 0    2721071: 0    977137: 0    2407122: 0    9769300: 0    1496917: 0    9045337: 0    3228314: 0    3207580: 0    

Patron 13: 
1803200: 0    6296449: 0    5050787: 0    3170852: 0    8181573: 0    2908868: 2    8954025: 0    8586796: 0    1935181: 1    2721071: 0    977137: 1    2407122: 0    9769300: 0    1496917: 0    9045337: 0    3228314: 0    3207580: 0    

Patron 14: 
1803200: 0    6296449: 0    5050787: 0    3170852: 0    8181573: 0    2908868: 1    8954025: 0    8586796: 0    1935181: 1    2721071: 0    977137: 1    2407122: 0    9769300: 0    1496917: 0    9045337: 0    3228314: 0    3207580: 0    

Patron 15: 
1803200: 0    6296449: 0    5050787: 0    3170852: 0    8181573: 0    2908868: 0    8954025: 0    8586796: 0    1935181: 1    2721071: 0    977137: 1    2407122: 0    9769300: 0    1496917: 0    9045337: 0    3228314: 0    3207580: 0    

Patron 16: 
1803200: 0    6296449: 0    5050787: 0    3170852: 0    8181573: 0    2908868: 0    8954025: 1    8586796: 0    1935181: 0    2721071: 0    977137: 1    2407122: 0    9769300: 0    1496917: 0    9045337: 0    3228314: 0    3207580: 0    

Patron 17: 
1803200: 0    6296449: 0    5050787: 0    3170852: 0    8181573: 0    2908868: 0    8954025: 0    8586796: 1    1935181: 0    2721071: 0    977137: 0    2407122: 0    9769300: 0    1496917: 0    9045337: 0    3228314: 0    3207580: 0    

Patron 18: 
1803200: 0    6296449: 0    5050787: 0    3170852: 0    8181573: 0    2908868: 0    8954025: 0    8586796: 0    1935181: 4    2721071: 0    977137: 1    2407122: 0    9769300: 0    1496917: 0    9045337: 0    3228314: 0    3207580: 0    

Patron 19: 
1803200: 0    6296449: 0    5050787: 0    3170852: 0    8181573: 0    2908868: 0    8954025: 0    8586796: 0    1935181: 3    2721071: 0    977137: 2    2407122: 0    9769300: 0    1496917: 0    9045337: 0    3228314: 0    3207580: 0    

Patron 20: 
1803200: 0    6296449: 0    5050787: 0    3170852: 0    8181573: 0    2908868: 0    8954025: 0    8586796: 0    1935181: 2    2721071: 0    977137: 2    2407122: 0    9769300: 0    1496917: 0    9045337: 0    3228314: 0    3207580: 0    

Patron 21: 
1803200: 0    6296449: 0    5050787: 0    3170852: 0    8181573: 0    2908868: 0    8954025: 0    8586796: 0    1935181: 1    2721071: 0    977137: 2    2407122: 0    9769300: 0    1496917: 0    9045337: 0    3228314: 0    3207580: 0    

Patron 22: 
1803200: 0    6296449: 0    5050787: 0    3170852: 0    8181573: 0    2908868: 0    8954025: 0    8586796: 0    1935181: 0    2721071: 0    977137: 2    2407122: 0    9769300: 0    1496917: 0    9045337: 0    3228314: 0    3207580: 0    

Patron 23: 
1803200: 0    6296449: 0    5050787: 0    3170852: 0    8181573: 0    2908868: 0    8954025: 0    8586796: 0    1935181: 0    2721071: 3    977137: 1    2407122: 0    9769300: 0    1496917: 0    9045337: 0    3228314: 0    3207580: 0    

Patron 24: 
1803200: 0    6296449: 0    5050787: 0    3170852: 0    8181573: 0    2908868: 0    8954025: 0    8586796: 0    1935181: 0    2721071: 2    977137: 3    2407122: 0    9769300: 0    1496917: 0    9045337: 0    3228314: 0    3207580: 0    

Patron 25: 
1803200: 0    6296449: 0    5050787: 0    3170852: 0    8181573: 0    2908868: 0    8954025: 0    8586796: 0    1935181: 0    2721071: 1    977137: 3    2407122: 0    9769300: 0    1496917: 0    9045337: 0    3228314: 0    3207580: 0    

Patron 26: 
1803200: 0    6296449: 0    5050787: 0    3170852: 0    8181573: 0    2908868: 0    8954025: 0    8586796: 0    1935181: 0    2721071: 0    977137: 3    2407122: 0    9769300: 0    1496917: 0    9045337: 0    3228314: 0    3207580: 0    

Patron 27: 
1803200: 0    6296449: 0    5050787: 0    3170852: 0    8181573: 0    2908868: 0    8954025: 0    8586796: 0    1935181: 0    2721071: 0    977137: 2    2407122: 0    9769300: 0    1496917: 0    9045337: 0    3228314: 0    3207580: 0    

Patron 28: 
1803200: 0    6296449: 0    5050787: 0    3170852: 0    8181573: 0    2908868: 0    8954025: 0    8586796: 0    1935181: 0    2721071: 0    977137: 1    2407122: 0    9769300: 0    1496917: 1    9045337: 0    3228314: 0    3207580: 0    

Patron 29: 
1803200: 0    6296449: 0    5050787: 0    3170852: 0    8181573: 0    2908868: 0    8954025: 0    8586796: 0    1935181: 0    2721071: 0    977137: 0    2407122: 0    9769300: 0    1496917: 1    9045337: 0    3228314: 0    3207580: 0    

Patron 30: 
1803200: 0    6296449: 0    5050787: 0    3170852: 0    8181573: 0    2908868: 0    8954025: 0    8586796: 0    1935181: 0    2721071: 0    977137: 0    2407122: 4    9769300: 0    1496917: 0    9045337: 0    3228314: 0    3207580: 0    

Patron 31: 
1803200: 0    6296449: 0    5050787: 0    3170852: 0    8181573: 0    2908868: 0    8954025: 0    8586796: 0    1935181: 0    2721071: 0    977137: 0    2407122: 3    9769300: 0    1496917: 1    9045337: 0    3228314: 0    3207580: 0    

Patron 32: 
1803200: 0    6296449: 0    5050787: 0    3170852: 0    8181573: 0    2908868: 0    8954025: 0    8586796: 0    1935181: 0    2721071: 0    977137: 0    2407122: 2    9769300: 0    1496917: 2    9045337: 0    3228314: 0    3207580: 0    

Patron 33: 
1803200: 0    6296449: 0    5050787: 0    3170852: 0    8181573: 0    2908868: 0    8954025: 0    8586796: 0    1935181: 0    2721071: 0    977137: 0    2407122: 1    9769300: 0    1496917: 2    9045337: 0    3228314: 0    3207580: 0    

Patron 34: 
1803200: 0    6296449: 0    5050787: 0    3170852: 0    8181573: 0    2908868: 0    8954025: 0    8586796: 0    1935181: 0    2721071: 0    977137: 0    2407122: 0    9769300: 0    1496917: 1    9045337: 0    3228314: 0    3207580: 0    

Patron 35: 
1803200: 0    6296449: 0    5050787: 0    3170852: 0    8181573: 0    2908868: 0    8954025: 0    8586796: 0    1935181: 0    2721071: 0    977137: 0    2407122: 0    9769300: 1    1496917: 0    9045337: 0    3228314: 0    3207580: 0    

Patron 36: 
1803200: 0    6296449: 0    5050787: 0    3170852: 0    8181573: 0    2908868: 0    8954025: 0    8586796: 0    1935181: 0    2721071: 0    977137: 0    2407122: 0    9769300: 0    1496917: 6    9045337: 0    3228314: 0    3207580: 0    

Patron 37: 
1803200: 0    6296449: 0    5050787: 0    3170852: 0    8181573: 0    2908868: 0    8954025: 0    8586796: 0    1935181: 0    2721071: 0    977137: 0    2407122: 0    9769300: 0    1496917: 5    9045337: 0    3228314: 0    3207580: 0    

Patron 38: 
1803200: 0    6296449: 0    5050787: 0    3170852: 0    8181573: 0    2908868: 0    8954025: 0    8586796: 0    1935181: 0    2721071: 0    977137: 0    2407122: 0    9769300: 0    1496917: 4    9045337: 0    3228314: 1    3207580: 0    

Patron 39: 
1803200: 0    6296449: 0    5050787: 0    3170852: 0    8181573: 0    2908868: 0    8954025: 0    8586796: 0    1935181: 0    2721071: 0    977137: 0    2407122: 0    9769300: 0    1496917: 3    9045337: 0    3228314: 0    3207580: 0    

Patron 40: 
1803200: 0    6296449: 0    5050787: 0    3170852: 0    8181573: 0    2908868: 0    8954025: 0    8586796: 0    1935181: 0    2721071: 0    977137: 0    2407122: 0    9769300: 0    1496917: 2    9045337: 0    3228314: 1    3207580: 0    

Patron 41: 
1803200: 0    6296449: 0    5050787: 0    3170852: 0    8181573: 0    2908868: 0    8954025: 0    8586796: 0    1935181: 0    2721071: 0    977137: 0    2407122: 0    9769300: 0    1496917: 1    9045337: 0    3228314: 0    3207580: 0    

Patron 42: 
1803200: 0    6296449: 0    5050787: 0    3170852: 0    8181573: 0    2908868: 0    8954025: 0    8586796: 0    1935181: 0    2721071: 0    977137: 0    2407122: 0    9769300: 0    1496917: 0    9045337: 0    3228314: 1    3207580: 0    

Patron 43: 
1803200: 0    6296449: 0    5050787: 0    3170852: 0    8181573: 0    2908868: 0    8954025: 0    8586796: 0    1935181: 0    2721071: 0    977137: 0    2407122: 0    9769300: 0    1496917: 0    9045337: 1    3228314: 0    3207580: 0    

Patron 44: 
1803200: 0    6296449: 0    5050787: 0    3170852: 0    8181573: 0    2908868: 0    8954025: 0    8586796: 0    1935181: 0    2721071: 0    977137: 0    2407122: 0    9769300: 0    1496917: 0    9045337: 0    3228314: 3    3207580: 0    

Patron 45: 
1803200: 0    6296449: 0    5050787: 0    3170852: 0    8181573: 0    2908868: 0    8954025: 0    8586796: 0    1935181: 0    2721071: 0    977137: 0    2407122: 0    9769300: 0    1496917: 0    9045337: 0    3228314: 2    3207580: 1    

Patron 46: 
1803200: 0    6296449: 0    5050787: 0    3170852: 0    8181573: 0    2908868: 0    8954025: 0    8586796: 0    1935181: 0    2721071: 0    977137: 0    2407122: 0    9769300: 0    1496917: 0    9045337: 0    3228314: 1    3207580: 1    

Patron 47: 
1803200: 0    6296449: 0    5050787: 0    3170852: 0    8181573: 0    2908868: 0    8954025: 0    8586796: 0    1935181: 0    2721071: 0    977137: 0    2407122: 0    9769300: 0    1496917: 0    9045337: 0    3228314: 0    3207580: 1    

Patron 48: 
1803200: 0    6296449: 0    5050787: 0    3170852: 0    8181573: 0    2908868: 0    8954025: 0    8586796: 0    1935181: 0    2721071: 0    977137: 0    2407122: 0    9769300: 0    1496917: 0    9045337: 0    3228314: 0    3207580: 0    

